"200","0.532","29.4"
"201","0.415","38.5"
"202","0.539","28.9"
"203","0.236","58.1"
"204","0.066","85.9"
"205","0.185","65.3"
"206","0.463","34.4"
"207","2.500","0.3"
"208","-0.165","146.2"
"209","0.019","95.7"
"210","0.208","61.9"
"211","-0.015","103.5"
"212","0.537","29.0"
"213","0.674","21.2"
"214","0.326","47.2"
"215","0.830","14.8"
"216","2.500","0.3"
"217","0.276","53.0"
"218","-0.199","158.1"
"219","0.107","78.2"
"220","0.191","64.4"
"221","0.541","28.8"
"222","0.637","23.1"
"223","0.096","80.2"
"224","0.488","32.5"
"225","0.337","46.0"
"226","0.578","26.4"
"227","0.513","30.7"
"228","0.716","19.2"
"229","0.734","18.5"
"230","0.744","18.0"
"231","0.782","16.5"
"232","0.815","15.3"
"233","0.867","13.6"
"234","0.919","12.1"
"235","0.968","10.8"
"236","1.009","9.8"
"237","1.062","8.7"
"238","1.099","8.0"
"239","1.152","7.0"
"240","1.223","6.0"
"241","1.264","5.4"
"242","1.316","4.8"
"243","1.365","4.3"
"244","1.380","4.2"
"245","1.307","4.9"
"246","1.349","4.5"
"247","1.346","4.5"
"248","1.351","4.5"
"249","1.315","4.8"
"250","1.266","5.4"
"251","1.166","6.8"
"252","1.105","7.9"
"253","1.044","9.0"
"254","0.973","10.6"
"255","0.886","13.0"
"256","0.805","15.7"
"257","0.733","18.5"
"258","0.661","21.8"
"259","0.599","25.2"
"260","0.535","29.2"
"261","0.491","32.3"
"262","0.448","35.6"
"263","0.415","38.5"
"264","0.387","41.0"
"265","0.363","43.4"
"266","0.351","44.6"
"267","0.340","45.7"
"268","0.332","46.6"
"269","0.333","46.5"
"270","0.338","45.9"
"271","0.356","44.1"
"272","0.363","43.4"
"273","0.373","42.4"
"274","0.395","40.3"
"275","0.428","37.3"
"276","0.462","34.5"
"277","0.506","31.2"
"278","0.552","28.1"
"279","0.598","25.2"
"280","0.678","21.0"
"281","0.720","19.1"
"282","0.812","15.4"
"283","0.878","13.2"
"284","0.954","11.1"
"285","1.037","9.2"
"286","1.109","7.8"
"287","1.181","6.6"
"288","1.260","5.5"
"289","1.251","5.6"
"290","1.267","5.4"
"291","1.528","3.0"
"292","1.440","3.6"
"293","1.448","3.6"
"294","1.333","4.6"
"295","1.241","5.7"
"296","1.487","3.3"
"297","1.541","2.9"
"298","1.474","3.4"
"299","1.642","2.3"
"300","1.598","2.5"
"301","1.241","5.7"
"302","1.287","5.2"
"303","1.425","3.8"
"304","1.229","5.9"
"305","1.320","4.8"
"306","1.456","3.5"
"307","1.210","6.2"
"308","1.370","4.3"
"309","1.389","4.1"
"310","1.334","4.6"
"311","1.263","5.5"
"312","1.123","7.5"
"313","1.074","8.4"
"314","0.995","10.1"
"315","0.890","12.9"
"316","0.798","15.9"
"317","0.714","19.3"
"318","0.629","23.5"
"319","0.559","27.6"
"320","0.507","31.1"
"321","0.462","34.5"
"322","0.420","38.0"
"323","0.383","41.4"
"324","0.353","44.4"
"325","0.327","47.1"
"326","0.305","49.5"
"327","0.279","52.6"
"328","0.258","55.2"
"329","0.244","57.0"
"330","0.226","59.4"
"331","0.210","61.7"
"332","0.198","63.4"
"333","0.185","65.3"
"334","0.173","67.1"
"335","0.161","69.0"
"336","0.150","70.8"
"337","0.140","72.4"
"338","0.132","73.8"
"339","0.125","75.0"
"340","0.115","76.7"
"341","0.109","77.8"
"342","0.102","79.1"
"343","0.097","80.0"
"344","0.085","82.2"
"345","0.090","81.3"
"346","0.083","82.6"
"347","0.077","83.8"
"348","0.070","85.1"
"349","0.066","85.9"
"350","0.068","85.5"
"351","0.064","86.3"
"352","0.061","86.9"
"353","0.057","87.7"
"354","0.057","87.7"
"355","0.049","89.3"
"356","0.045","90.2"
"357","0.044","90.4"
"358","0.045","90.2"
"359","0.042","90.8"
"360","0.046","89.9"
"361","0.044","90.4"
"362","0.034","92.5"
"363","0.035","92.3"
"364","0.037","91.8"
"365","0.042","90.8"
"366","0.036","92.0"
"367","0.034","92.5"
"368","0.033","92.7"
"369","0.028","93.8"
"370","0.028","93.8"
"371","0.025","94.4"
"372","0.033","92.7"
"373","0.029","93.5"
"374","0.030","93.3"
"375","0.033","92.7"
"376","0.026","94.2"
"377","0.019","95.7"
"378","0.025","94.4"
"379","0.017","96.2"
"380","0.024","94.6"
"381","0.024","94.6"
"382","0.027","94.0"
"383","0.025","94.4"
"384","0.020","95.5"
"385","0.022","95.1"
"386","0.018","95.9"
"387","0.014","96.8"
"388","0.023","94.8"
"389","0.015","96.6"
"390","0.019","95.7"
"391","0.025","94.4"
"392","0.020","95.5"
"393","0.015","96.6"
"394","0.017","96.2"
"395","0.015","96.6"
"396","0.015","96.6"
"397","0.016","96.4"
"398","0.015","96.6"
"399","0.016","96.4"
"400","0.013","97.1"
"401","0.013","97.1"
"402","0.011","97.5"
"403","0.010","97.7"
"404","0.016","96.4"
"405","0.012","97.3"
"406","0.011","97.5"
"407","0.010","97.7"
"408","0.008","98.2"
"409","0.006","98.6"
"410","0.006","98.6"
"411","0.010","97.7"
"412","0.009","97.9"
"413","0.004","99.1"
"414","0.006","98.6"
"415","0.009","97.9"
"416","0.005","98.9"
"417","0.005","98.9"
"418","0.008","98.2"
"419","0.005","98.9"
"420","0.001","99.8"
"421","0.003","99.3"
"422","0.000","100.0"
"423","0.000","100.0"
"424","0.000","100.0"
"425","0.000","100.0"
"426","-0.002","100.5"
"427","0.000","100.0"
"428","0.001","99.8"
"429","0.000","100.0"
"430","0.001","99.8"
"431","0.001","99.8"
"432","0.000","100.0"
"433","0.002","99.5"
"434","-0.001","100.2"
"435","-0.003","100.7"
"436","-0.001","100.2"
"437","-0.003","100.7"
"438","0.000","100.0"
"439","-0.003","100.7"
"440","-0.004","100.9"
"441","-0.004","100.9"
"442","-0.004","100.9"
"443","-0.004","100.9"
"444","-0.005","101.2"
"445","0.000","100.0"
"446","0.000","100.0"
"447","-0.003","100.7"
"448","-0.005","101.2"
"449","-0.002","100.5"
"450","-0.001","100.2"
"451","-0.005","101.2"
"452","-0.005","101.2"
"453","-0.006","101.4"
"454","-0.005","101.2"
"455","-0.003","100.7"
"456","-0.004","100.9"
"457","-0.006","101.4"
"458","-0.004","100.9"
"459","-0.005","101.2"
"460","-0.004","100.9"
"461","-0.004","100.9"
"462","-0.003","100.7"
"463","-0.004","100.9"
"464","-0.004","100.9"
"465","-0.004","100.9"
"466","-0.005","101.2"
"467","-0.004","100.9"
"468","-0.004","100.9"
"469","-0.003","100.7"
"470","-0.004","100.9"
"471","-0.004","100.9"
"472","-0.003","100.7"
"473","-0.004","100.9"
"474","-0.004","100.9"
"475","-0.004","100.9"
"476","-0.004","100.9"
"477","-0.005","101.2"
"478","-0.004","100.9"
"479","0.001","99.8"
"480","-0.004","100.9"
"481","-0.003","100.7"
"482","-0.003","100.7"
"483","-0.003","100.7"
"484","-0.003","100.7"
"485","-0.005","101.2"
"486","-0.005","101.2"
"487","-0.003","100.7"
"488","-0.003","100.7"
"489","-0.005","101.2"
"490","-0.003","100.7"
"491","-0.004","100.9"
"492","-0.001","100.2"
"493","-0.004","100.9"
"494","-0.005","101.2"
"495","-0.004","100.9"
"496","-0.003","100.7"
"497","-0.004","100.9"
"498","-0.004","100.9"
"499","-0.006","101.4"
"500","-0.003","100.7"
"501","-0.004","100.9"
"502","-0.003","100.7"
"503","-0.002","100.5"
"504","-0.004","100.9"
"505","-0.003","100.7"
"506","-0.004","100.9"
"507","-0.003","100.7"
"508","-0.005","101.2"
"509","-0.004","100.9"
"510","-0.003","100.7"
"511","-0.003","100.7"
"512","-0.003","100.7"
"513","-0.005","101.2"
"514","-0.003","100.7"
"515","-0.001","100.2"
"516","-0.002","100.5"
"517","-0.002","100.5"
"518","-0.002","100.5"
"519","-0.001","100.2"
"520","-0.002","100.5"
"521","-0.001","100.2"
"522","-0.002","100.5"
"523","-0.002","100.5"
"524","-0.002","100.5"
"525","-0.002","100.5"
"526","-0.004","100.9"
"527","-0.003","100.7"
"528","-0.003","100.7"
"529","-0.004","100.9"
"530","-0.005","101.2"
"531","-0.002","100.5"
"532","0.000","100.0"
"533","-0.003","100.7"
"534","-0.003","100.7"
"535","-0.003","100.7"
"536","-0.002","100.5"
"537","-0.002","100.5"
"538","-0.004","100.9"
"539","-0.005","101.2"
"540","-0.002","100.5"
"541","0.001","99.8"
"542","0.001","99.8"
"543","0.001","99.8"
"544","0.000","100.0"
"545","0.001","99.8"
"546","0.000","100.0"
"547","0.000","100.0"
"548","0.001","99.8"
"549","0.000","100.0"
"550","-0.001","100.2"
"551","-0.001","100.2"
"552","-0.001","100.2"
"553","-0.001","100.2"
"554","-0.001","100.2"
"555","-0.001","100.2"
"556","0.000","100.0"
"557","0.000","100.0"
"558","-0.001","100.2"
"559","-0.001","100.2"
"560","0.001","99.8"
"561","-0.001","100.2"
"562","0.000","100.0"
"563","0.000","100.0"
"564","-0.001","100.2"
"565","-0.001","100.2"
"566","0.000","100.0"
"567","-0.003","100.7"
"568","-0.003","100.7"
"569","0.000","100.0"
"570","-0.002","100.5"
"571","-0.001","100.2"
"572","0.000","100.0"
"573","0.000","100.0"
"574","0.002","99.5"
"575","0.000","100.0"
"576","-0.001","100.2"
"577","-0.001","100.2"
"578","-0.003","100.7"
"579","-0.002","100.5"
"580","-0.001","100.2"
"581","-0.003","100.7"
"582","0.001","99.8"
"583","-0.001","100.2"
"584","-0.001","100.2"
"585","-0.002","100.5"
"586","-0.001","100.2"
"587","0.002","99.5"
"588","-0.001","100.2"
"589","0.000","100.0"
"590","0.000","100.0"
"591","-0.001","100.2"
"592","0.001","99.8"
"593","0.000","100.0"
"594","-0.001","100.2"
"595","-0.002","100.5"
"596","-0.001","100.2"
"597","-0.002","100.5"
"598","-0.002","100.5"
"599","0.002","99.5"
"600","-0.001","100.2"
"601","-0.002","100.5"
"602","-0.002","100.5"
"603","0.000","100.0"
"604","-0.002","100.5"
"605","-0.001","100.2"
"606","-0.002","100.5"
"607","0.000","100.0"
"608","0.001","99.8"
"609","-0.001","100.2"
"610","-0.001","100.2"
"611","-0.002","100.5"
"612","-0.005","101.2"
"613","0.002","99.5"
"614","-0.002","100.5"
"615","-0.004","100.9"
"616","0.000","100.0"
"617","0.001","99.8"
"618","0.000","100.0"
"619","0.000","100.0"
"620","-0.001","100.2"
"621","-0.001","100.2"
"622","0.000","100.0"
"623","0.001","99.8"
"624","-0.002","100.5"
"625","-0.002","100.5"
"626","0.000","100.0"
"627","0.000","100.0"
"628","-0.003","100.7"
"629","-0.002","100.5"
"630","-0.002","100.5"
"631","-0.001","100.2"
"632","-0.001","100.2"
"633","-0.002","100.5"
"634","-0.001","100.2"
"635","0.000","100.0"
"636","-0.003","100.7"
"637","-0.002","100.5"
"638","0.000","100.0"
"639","-0.002","100.5"
"640","0.000","100.0"
"641","0.001","99.8"
"642","0.002","99.5"
"643","0.004","99.1"
"644","0.005","98.9"
"645","0.003","99.3"
"646","0.005","98.9"
"647","0.005","98.9"
"648","0.002","99.5"
"649","0.001","99.8"
"650","-0.001","100.2"
"651","0.000","100.0"
"652","-0.003","100.7"
"653","0.000","100.0"
"654","0.000","100.0"
"655","-0.002","100.5"
"656","-0.002","100.5"
"657","0.000","100.0"
"658","-0.001","100.2"
"659","0.000","100.0"
"660","-0.001","100.2"
"661","0.001","99.8"
"662","-0.002","100.5"
"663","-0.002","100.5"
"664","0.000","100.0"
"665","0.000","100.0"
"666","-0.001","100.2"
"667","-0.002","100.5"
"668","-0.005","101.2"
"669","0.000","100.0"
"670","-0.001","100.2"
"671","-0.001","100.2"
"672","0.001","99.8"
"673","-0.001","100.2"
"674","0.000","100.0"
"675","-0.002","100.5"
"676","-0.001","100.2"
"677","0.001","99.8"
"678","0.000","100.0"
"679","-0.002","100.5"
"680","-0.001","100.2"
"681","-0.002","100.5"
"682","-0.001","100.2"
"683","-0.001","100.2"
"684","0.003","99.3"
"685","0.000","100.0"
"686","0.000","100.0"
"687","-0.002","100.5"
"688","-0.002","100.5"
"689","0.001","99.8"
"690","0.001","99.8"
"691","-0.002","100.5"
"692","0.000","100.0"
"693","-0.001","100.2"
"694","0.000","100.0"
"695","0.000","100.0"
"696","-0.001","100.2"
"697","0.001","99.8"
"698","-0.001","100.2"
"699","-0.003","100.7"
"700","-0.004","100.9"
