"200","-0.153","142.2"
"201","0.134","73.5"
"202","0.635","23.2"
"203","-0.069","117.2"
"204","0.010","97.7"
"205","0.204","62.5"
"206","-0.027","106.4"
"207","0.127","74.6"
"208","-0.199","158.1"
"209","-0.079","119.9"
"210","-0.040","109.6"
"211","0.045","90.2"
"212","0.169","67.8"
"213","-0.184","152.8"
"214","0.406","39.3"
"215","0.014","96.8"
"216","-0.068","116.9"
"217","0.202","62.8"
"218","-0.507","321.4"
"219","-0.596","394.5"
"220","-0.163","145.5"
"221","0.102","79.1"
"222","-0.215","164.1"
"223","-0.096","124.7"
"224","-0.087","122.2"
"225","-0.136","136.8"
"226","0.081","83.0"
"227","0.001","99.8"
"228","-0.026","106.2"
"229","-0.089","122.7"
"230","-0.165","146.2"
"231","-0.243","175.0"
"232","-0.317","207.5"
"233","-0.380","239.9"
"234","-0.443","277.3"
"235","-0.507","321.4"
"236","-0.563","365.6"
"237","-0.617","414.0"
"238","-0.661","458.1"
"239","-0.708","510.5"
"240","-0.750","562.3"
"241","-0.773","592.9"
"242","-0.799","629.5"
"243","-0.802","633.9"
"244","-0.801","632.4"
"245","-0.773","592.9"
"246","-0.717","521.2"
"247","-0.655","451.9"
"248","-0.603","400.9"
"249","-0.499","315.5"
"250","-0.373","236.0"
"251","-0.227","168.7"
"252","-0.066","116.4"
"253","0.088","81.7"
"254","0.252","56.0"
"255","0.468","34.0"
"256","0.690","20.4"
"257","0.923","11.9"
"258","1.144","7.2"
"259","1.388","4.1"
"260","1.700","2.0"
"261","1.931","1.2"
"262","2.145","0.7"
"263","2.335","0.5"
"264","2.537","0.3"
"265","2.516","0.3"
"266","2.803","0.2"
"267","2.635","0.2"
"268","2.778","0.2"
"269","2.831","0.1"
"270","2.758","0.2"
"271","2.839","0.1"
"272","3.012","0.1"
"273","3.216","0.1"
"274","2.866","0.1"
"275","2.630","0.2"
"276","2.730","0.2"
"277","2.726","0.2"
"278","2.739","0.2"
"279","2.747","0.2"
"280","2.945","0.1"
"281","2.751","0.2"
"282","2.446","0.4"
"283","2.334","0.5"
"284","2.455","0.4"
"285","2.113","0.8"
"286","2.110","0.8"
"287","2.072","0.8"
"288","2.718","0.2"
"289","2.123","0.8"
"290","2.405","0.4"
"291","1.507","3.1"
"292","1.637","2.3"
"293","1.581","2.6"
"294","1.469","3.4"
"295","1.533","2.9"
"296","1.652","2.2"
"297","1.709","2.0"
"298","1.519","3.0"
"299","1.840","1.4"
"300","1.683","2.1"
"301","1.616","2.4"
"302","1.678","2.1"
"303","1.421","3.8"
"304","1.705","2.0"
"305","1.331","4.7"
"306","1.314","4.9"
"307","1.647","2.3"
"308","1.792","1.6"
"309","1.597","2.5"
"310","1.843","1.4"
"311","1.792","1.6"
"312","2.039","0.9"
"313","1.681","2.1"
"314","1.982","1.0"
"315","2.046","0.9"
"316","1.791","1.6"
"317","1.366","4.3"
"318","1.017","9.6"
"319","0.670","21.4"
"320","0.454","35.2"
"321","0.291","51.2"
"322","0.166","68.2"
"323","0.067","85.7"
"324","0.002","99.5"
"325","-0.023","105.4"
"326","-0.057","114.0"
"327","-0.078","119.7"
"328","-0.088","122.5"
"329","-0.092","123.6"
"330","-0.092","123.6"
"331","-0.093","123.9"
"332","-0.089","122.7"
"333","-0.084","121.3"
"334","-0.082","120.8"
"335","-0.078","119.7"
"336","-0.074","118.6"
"337","-0.067","116.7"
"338","-0.063","115.6"
"339","-0.055","113.5"
"340","-0.052","112.7"
"341","-0.049","111.9"
"342","-0.046","111.2"
"343","-0.044","110.7"
"344","-0.042","110.2"
"345","-0.038","109.1"
"346","-0.035","108.4"
"347","-0.035","108.4"
"348","-0.032","107.6"
"349","-0.034","108.1"
"350","-0.024","105.7"
"351","-0.027","106.4"
"352","-0.024","105.7"
"353","-0.027","106.4"
"354","-0.027","106.4"
"355","-0.031","107.4"
"356","-0.030","107.2"
"357","-0.020","104.7"
"358","-0.028","106.7"
"359","-0.027","106.4"
"360","-0.024","105.7"
"361","-0.011","102.6"
"362","-0.029","106.9"
"363","-0.019","104.5"
"364","-0.017","104.0"
"365","-0.015","103.5"
"366","-0.016","103.8"
"367","-0.014","103.3"
"368","-0.014","103.3"
"369","-0.020","104.7"
"370","-0.018","104.2"
"371","-0.020","104.7"
"372","-0.014","103.3"
"373","-0.014","103.3"
"374","-0.017","104.0"
"375","-0.024","105.7"
"376","-0.019","104.5"
"377","-0.023","105.4"
"378","-0.017","104.0"
"379","-0.027","106.4"
"380","-0.019","104.5"
"381","-0.018","104.2"
"382","-0.014","103.3"
"383","-0.020","104.7"
"384","-0.020","104.7"
"385","-0.026","106.2"
"386","-0.019","104.5"
"387","-0.023","105.4"
"388","-0.016","103.8"
"389","-0.024","105.7"
"390","-0.030","107.2"
"391","-0.018","104.2"
"392","-0.019","104.5"
"393","-0.018","104.2"
"394","-0.017","104.0"
"395","-0.018","104.2"
"396","-0.013","103.0"
"397","-0.015","103.5"
"398","-0.018","104.2"
"399","-0.015","103.5"
"400","-0.017","104.0"
"401","-0.015","103.5"
"402","-0.017","104.0"
"403","-0.014","103.3"
"404","-0.011","102.6"
"405","-0.016","103.8"
"406","-0.015","103.5"
"407","-0.017","104.0"
"408","-0.016","103.8"
"409","-0.016","103.8"
"410","-0.014","103.3"
"411","-0.014","103.3"
"412","-0.015","103.5"
"413","-0.017","104.0"
"414","-0.013","103.0"
"415","-0.012","102.8"
"416","-0.014","103.3"
"417","-0.013","103.0"
"418","-0.015","103.5"
"419","-0.013","103.0"
"420","-0.015","103.5"
"421","-0.013","103.0"
"422","-0.017","104.0"
"423","-0.016","103.8"
"424","-0.013","103.0"
"425","-0.015","103.5"
"426","-0.017","104.0"
"427","-0.013","103.0"
"428","-0.012","102.8"
"429","-0.013","103.0"
"430","-0.014","103.3"
"431","-0.014","103.3"
"432","-0.014","103.3"
"433","-0.011","102.6"
"434","-0.014","103.3"
"435","-0.016","103.8"
"436","-0.013","103.0"
"437","-0.012","102.8"
"438","-0.011","102.6"
"439","-0.015","103.5"
"440","-0.014","103.3"
"441","-0.013","103.0"
"442","-0.014","103.3"
"443","-0.014","103.3"
"444","-0.012","102.8"
"445","-0.012","102.8"
"446","-0.011","102.6"
"447","-0.015","103.5"
"448","-0.014","103.3"
"449","-0.011","102.6"
"450","-0.013","103.0"
"451","-0.015","103.5"
"452","-0.015","103.5"
"453","-0.014","103.3"
"454","-0.016","103.8"
"455","-0.014","103.3"
"456","-0.016","103.8"
"457","-0.016","103.8"
"458","-0.014","103.3"
"459","-0.015","103.5"
"460","-0.012","102.8"
"461","-0.016","103.8"
"462","-0.016","103.8"
"463","-0.015","103.5"
"464","-0.014","103.3"
"465","-0.016","103.8"
"466","-0.016","103.8"
"467","-0.015","103.5"
"468","-0.014","103.3"
"469","-0.015","103.5"
"470","-0.014","103.3"
"471","-0.017","104.0"
"472","-0.015","103.5"
"473","-0.015","103.5"
"474","-0.014","103.3"
"475","-0.013","103.0"
"476","-0.016","103.8"
"477","-0.015","103.5"
"478","-0.015","103.5"
"479","-0.012","102.8"
"480","-0.015","103.5"
"481","-0.016","103.8"
"482","-0.016","103.8"
"483","-0.010","102.3"
"484","-0.015","103.5"
"485","-0.015","103.5"
"486","-0.018","104.2"
"487","-0.012","102.8"
"488","-0.015","103.5"
"489","-0.017","104.0"
"490","-0.018","104.2"
"491","-0.016","103.8"
"492","-0.014","103.3"
"493","-0.017","104.0"
"494","-0.018","104.2"
"495","-0.018","104.2"
"496","-0.016","103.8"
"497","-0.017","104.0"
"498","-0.017","104.0"
"499","-0.018","104.2"
"500","-0.018","104.2"
"501","-0.018","104.2"
"502","-0.017","104.0"
"503","-0.016","103.8"
"504","-0.018","104.2"
"505","-0.017","104.0"
"506","-0.018","104.2"
"507","-0.018","104.2"
"508","-0.016","103.8"
"509","-0.018","104.2"
"510","-0.017","104.0"
"511","-0.019","104.5"
"512","-0.019","104.5"
"513","-0.020","104.7"
"514","-0.020","104.7"
"515","-0.019","104.5"
"516","-0.018","104.2"
"517","-0.020","104.7"
"518","-0.016","103.8"
"519","-0.018","104.2"
"520","-0.019","104.5"
"521","-0.019","104.5"
"522","-0.020","104.7"
"523","-0.019","104.5"
"524","-0.017","104.0"
"525","-0.017","104.0"
"526","-0.018","104.2"
"527","-0.018","104.2"
"528","-0.018","104.2"
"529","-0.019","104.5"
"530","-0.020","104.7"
"531","-0.018","104.2"
"532","-0.017","104.0"
"533","-0.016","103.8"
"534","-0.019","104.5"
"535","-0.021","105.0"
"536","-0.019","104.5"
"537","-0.016","103.8"
"538","-0.022","105.2"
"539","-0.020","104.7"
"540","-0.015","103.5"
"541","-0.018","104.2"
"542","-0.017","104.0"
"543","-0.019","104.5"
"544","-0.019","104.5"
"545","-0.019","104.5"
"546","-0.018","104.2"
"547","-0.019","104.5"
"548","-0.021","105.0"
"549","-0.020","104.7"
"550","-0.021","105.0"
"551","-0.023","105.4"
"552","-0.021","105.0"
"553","-0.020","104.7"
"554","-0.021","105.0"
"555","-0.019","104.5"
"556","-0.019","104.5"
"557","-0.020","104.7"
"558","-0.020","104.7"
"559","-0.020","104.7"
"560","-0.021","105.0"
"561","-0.020","104.7"
"562","-0.023","105.4"
"563","-0.020","104.7"
"564","-0.021","105.0"
"565","-0.020","104.7"
"566","-0.020","104.7"
"567","-0.023","105.4"
"568","-0.022","105.2"
"569","-0.021","105.0"
"570","-0.022","105.2"
"571","-0.021","105.0"
"572","-0.020","104.7"
"573","-0.021","105.0"
"574","-0.021","105.0"
"575","-0.020","104.7"
"576","-0.022","105.2"
"577","-0.022","105.2"
"578","-0.023","105.4"
"579","-0.022","105.2"
"580","-0.022","105.2"
"581","-0.023","105.4"
"582","-0.020","104.7"
"583","-0.020","104.7"
"584","-0.022","105.2"
"585","-0.022","105.2"
"586","-0.021","105.0"
"587","-0.021","105.0"
"588","-0.023","105.4"
"589","-0.022","105.2"
"590","-0.020","104.7"
"591","-0.022","105.2"
"592","-0.022","105.2"
"593","-0.021","105.0"
"594","-0.020","104.7"
"595","-0.020","104.7"
"596","-0.023","105.4"
"597","-0.023","105.4"
"598","-0.023","105.4"
"599","-0.021","105.0"
"600","-0.019","104.5"
"601","-0.021","105.0"
"602","-0.020","104.7"
"603","-0.022","105.2"
"604","-0.022","105.2"
"605","-0.022","105.2"
"606","-0.022","105.2"
"607","-0.020","104.7"
"608","-0.020","104.7"
"609","-0.022","105.2"
"610","-0.021","105.0"
"611","-0.022","105.2"
"612","-0.023","105.4"
"613","-0.022","105.2"
"614","-0.023","105.4"
"615","-0.024","105.7"
"616","-0.023","105.4"
"617","-0.022","105.2"
"618","-0.020","104.7"
"619","-0.019","104.5"
"620","-0.023","105.4"
"621","-0.021","105.0"
"622","-0.019","104.5"
"623","-0.022","105.2"
"624","-0.024","105.7"
"625","-0.022","105.2"
"626","-0.020","104.7"
"627","-0.021","105.0"
"628","-0.021","105.0"
"629","-0.023","105.4"
"630","-0.021","105.0"
"631","-0.021","105.0"
"632","-0.022","105.2"
"633","-0.022","105.2"
"634","-0.021","105.0"
"635","-0.024","105.7"
"636","-0.022","105.2"
"637","-0.023","105.4"
"638","-0.022","105.2"
"639","-0.024","105.7"
"640","-0.022","105.2"
"641","-0.021","105.0"
"642","-0.021","105.0"
"643","-0.021","105.0"
"644","-0.020","104.7"
"645","-0.022","105.2"
"646","-0.020","104.7"
"647","-0.019","104.5"
"648","-0.019","104.5"
"649","-0.021","105.0"
"650","-0.021","105.0"
"651","-0.018","104.2"
"652","-0.019","104.5"
"653","-0.020","104.7"
"654","-0.019","104.5"
"655","-0.021","105.0"
"656","-0.020","104.7"
"657","-0.018","104.2"
"658","-0.019","104.5"
"659","-0.017","104.0"
"660","-0.019","104.5"
"661","-0.018","104.2"
"662","-0.018","104.2"
"663","-0.022","105.2"
"664","-0.017","104.0"
"665","-0.017","104.0"
"666","-0.021","105.0"
"667","-0.017","104.0"
"668","-0.019","104.5"
"669","-0.018","104.2"
"670","-0.019","104.5"
"671","-0.021","105.0"
"672","-0.020","104.7"
"673","-0.020","104.7"
"674","-0.023","105.4"
"675","-0.022","105.2"
"676","-0.022","105.2"
"677","-0.020","104.7"
"678","-0.020","104.7"
"679","-0.021","105.0"
"680","-0.022","105.2"
"681","-0.024","105.7"
"682","-0.022","105.2"
"683","-0.022","105.2"
"684","-0.023","105.4"
"685","-0.023","105.4"
"686","-0.023","105.4"
"687","-0.024","105.7"
"688","-0.024","105.7"
"689","-0.023","105.4"
"690","-0.021","105.0"
"691","-0.021","105.0"
"692","-0.023","105.4"
"693","-0.022","105.2"
"694","-0.023","105.4"
"695","-0.021","105.0"
"696","-0.023","105.4"
"697","-0.022","105.2"
"698","-0.022","105.2"
"699","-0.024","105.7"
"700","-0.025","105.9"
